03/31/2022	10:42
Amplitude: 5.00 V
Freq  (Hz) 	 Gain (dB)  	 Phase (deg)
 10.000            -21.584             45.125
 11.220            -20.871             42.295
 12.589            -20.209             39.419
 14.125            -19.598             36.376
 15.849            -19.036             33.355
 17.783            -18.520             30.180
 19.953            -18.066             27.215
 22.387            -17.659             24.095
 25.119            -17.306             21.245
 28.184            -16.999             18.473
 31.623            -16.731             15.729
 35.481            -16.501             13.082
 39.811            -16.307             10.743
 44.668            -16.143              8.656
 50.119            -15.998              6.361
 56.234            -15.879              4.640
 63.096            -15.789              2.956
 70.795            -15.755              2.615
 79.433            -15.726              2.350
 89.125            -15.699              2.105
100.000            -15.676              1.843
112.202            -15.651              1.470
125.893            -15.631              1.175
141.254            -15.612              0.853
158.489            -15.596              0.535
177.828            -15.580              0.192
199.526            -15.566             -0.049
223.872            -15.553             -0.545
251.189            -15.543             -0.812
281.838            -15.533             -1.239
316.228            -15.524             -1.694
354.813            -15.517             -2.339
398.107            -15.510             -2.966
446.684            -15.506             -3.523
501.187            -15.506             -3.989
562.341            -15.508             -4.959
630.957            -15.516             -5.782
707.946            -15.527             -6.708
794.328            -15.539             -7.767
891.251            -15.562             -8.856
1000.000            -15.592             -9.672
1122.018            -15.628            -11.480
1258.925            -15.676            -13.007
1412.538            -15.739            -14.699
1584.893            -15.817            -16.535
1778.279            -15.916            -18.563
1995.262            -16.038            -20.756
2238.721            -16.187            -23.127
2511.886            -16.370            -25.685
2818.383            -16.591            -28.406
3162.278            -16.855            -31.286
3548.134            -17.170            -34.316
3981.072            -17.535            -37.448
4466.836            -17.949            -40.552
5011.872            -18.421            -43.692
5623.413            -18.948            -46.859
6309.573            -19.524            -49.957
7079.458            -20.153            -52.961
7943.282            -20.812            -55.756
8912.509            -21.536            -58.491
10000.000            -22.400            -59.573
11220.185            -23.086            -63.372
12589.254            -23.896            -65.476
14125.375            -24.741            -67.431
15848.932            -25.607            -69.196
17782.794            -26.493            -70.805
19952.623            -27.387            -72.218
